
ELEMENT:
                                      Cr

SOURCE:
                                Gergely et al.
                       Surface Sci. 331-333 (1995) 1203
           IMFPs determined from the intensity of the elastic peak
       Multiple elastic scattering simulated by the Monte Carlo method

ATOMIC WEIGHT:                51.99610

DENSITY:                       7.1500 g/cm**3

TABULATION:

______________________________________________________________________________

                    Energy                         IMFP
                      eV                        Angstroms
______________________________________________________________________________
                     500.0                         9.45
                     506.3                         9.52
                     512.5                         9.60
                     518.8                         9.68
                     525.0                         9.76
                     531.3                         9.83
                     537.5                         9.91
                     543.8                         9.99
                     550.0                        10.06
                     556.3                        10.14
                     562.5                        10.22
                     568.8                        10.29
                     575.0                        10.37
                     581.3                        10.44
                     587.5                        10.51
                     593.8                        10.59
                     600.0                        10.66
                     606.3                        10.74
                     612.5                        10.81
                     618.8                        10.88
                     625.0                        10.96
                     631.3                        11.03
                     637.5                        11.10
                     643.8                        11.17
                     650.0                        11.25
                     656.3                        11.32
                     662.5                        11.39
                     668.8                        11.46
                     675.0                        11.53
                     681.3                        11.60
                     687.5                        11.67
                     693.8                        11.74
                     700.0                        11.81
                     706.3                        11.88
                     712.5                        11.95
                     718.8                        12.02
                     725.0                        12.09
                     731.3                        12.16
                     737.5                        12.23
                     743.8                        12.30
                     750.0                        12.37
                     756.3                        12.44
                     762.5                        12.51
                     768.8                        12.57
                     775.0                        12.64
                     781.3                        12.71
                     787.5                        12.78
                     793.8                        12.84
                     800.0                        12.91
                     806.3                        12.98
                     812.5                        13.05
                     818.8                        13.11
                     825.0                        13.18
                     831.3                        13.24
                     837.5                        13.31
                     843.8                        13.38
                     850.0                        13.44
                     856.3                        13.51
                     862.5                        13.57
                     868.8                        13.64
                     875.0                        13.70
                     881.3                        13.77
                     887.5                        13.83
                     893.8                        13.90
                     900.0                        13.96
                     906.3                        14.03
                     912.5                        14.09
                     918.8                        14.16
                     925.0                        14.22
                     931.3                        14.28
                     937.5                        14.35
                     943.8                        14.41
                     950.0                        14.47
                     956.3                        14.54
                     962.5                        14.60
                     968.8                        14.66
                     975.0                        14.73
                     981.3                        14.79
                     987.5                        14.85
                     993.8                        14.91
                    1000.0                        14.98
                    1006.3                        15.04
                    1012.5                        15.10
                    1018.8                        15.16
                    1025.0                        15.22
                    1031.3                        15.29
                    1037.5                        15.35
                    1043.8                        15.41
                    1050.0                        15.47
                    1056.3                        15.53
                    1062.5                        15.59
                    1068.8                        15.65
                    1075.0                        15.71
                    1081.3                        15.78
                    1087.5                        15.84
                    1093.8                        15.90
                    1100.0                        15.96
                    1106.3                        16.02
                    1112.5                        16.08
                    1118.8                        16.14
                    1125.0                        16.20
                    1131.3                        16.26
                    1137.5                        16.32
                    1143.8                        16.38
                    1150.0                        16.44
                    1156.3                        16.49
                    1162.5                        16.55
                    1168.8                        16.61
                    1175.0                        16.67
                    1181.3                        16.73
                    1187.5                        16.79
                    1193.8                        16.85
                    1200.0                        16.91
                    1206.3                        16.97
                    1212.5                        17.02
                    1218.8                        17.08
                    1225.0                        17.14
                    1231.3                        17.20
                    1237.5                        17.26
                    1243.8                        17.31
                    1250.0                        17.37
                    1256.3                        17.43
                    1262.5                        17.49
                    1268.8                        17.55
                    1275.0                        17.60
                    1281.3                        17.66
                    1287.5                        17.72
                    1293.8                        17.77
                    1300.0                        17.83
                    1306.3                        17.89
                    1312.5                        17.95
                    1318.8                        18.00
                    1325.0                        18.06
                    1331.3                        18.12
                    1337.5                        18.17
                    1343.8                        18.23
                    1350.0                        18.28
                    1356.3                        18.34
                    1362.5                        18.40
                    1368.8                        18.45
                    1375.0                        18.51
                    1381.3                        18.56
                    1387.5                        18.62
                    1393.8                        18.68
                    1400.0                        18.73
                    1406.3                        18.79
                    1412.5                        18.84
                    1418.8                        18.90
                    1425.0                        18.95
                    1431.3                        19.01
                    1437.5                        19.06
                    1443.8                        19.12
                    1450.0                        19.17
                    1456.3                        19.23
                    1462.5                        19.28
                    1468.8                        19.34
                    1475.0                        19.39
                    1481.3                        19.45
                    1487.5                        19.50
                    1493.8                        19.56
                    1500.0                        19.61
                    1506.3                        19.67
                    1512.5                        19.72
                    1518.8                        19.77
                    1525.0                        19.83
                    1531.3                        19.88
                    1537.5                        19.94
                    1543.8                        19.99
                    1550.0                        20.04
                    1556.3                        20.10
                    1562.5                        20.15
                    1568.8                        20.20
                    1575.0                        20.26
                    1581.3                        20.31
                    1587.5                        20.37
                    1593.8                        20.42
                    1600.0                        20.47
                    1606.3                        20.52
                    1612.5                        20.58
                    1618.8                        20.63
                    1625.0                        20.68
                    1631.3                        20.74
                    1637.5                        20.79
                    1643.8                        20.84
                    1650.0                        20.89
                    1656.3                        20.95
                    1662.5                        21.00
                    1668.8                        21.05
                    1675.0                        21.10
                    1681.3                        21.16
                    1687.5                        21.21
                    1693.8                        21.26
                    1700.0                        21.31
                    1706.3                        21.37
                    1712.5                        21.42
                    1718.8                        21.47
                    1725.0                        21.52
                    1731.3                        21.57
                    1737.5                        21.63
                    1743.8                        21.68
                    1750.0                        21.73
                    1756.3                        21.78
                    1762.5                        21.83
                    1768.8                        21.88
                    1775.0                        21.93
                    1781.3                        21.99
                    1787.5                        22.04
                    1793.8                        22.09
                    1800.0                        22.14
                    1806.3                        22.19
                    1812.5                        22.24
                    1818.8                        22.29
                    1825.0                        22.34
                    1831.3                        22.39
                    1837.5                        22.45
                    1843.8                        22.50
                    1850.0                        22.55
                    1856.3                        22.60
                    1862.5                        22.65
                    1868.8                        22.70
                    1875.0                        22.75
                    1881.3                        22.80
                    1887.5                        22.85
                    1893.8                        22.90
                    1900.0                        22.95
                    1906.3                        23.00
                    1912.5                        23.05
                    1918.8                        23.10
                    1925.0                        23.15
                    1931.3                        23.20
                    1937.5                        23.25
                    1943.8                        23.30
                    1950.0                        23.35
                    1956.3                        23.40
                    1962.5                        23.45
                    1968.8                        23.50
                    1975.0                        23.55
                    1981.3                        23.60
                    1987.5                        23.65
                    1993.8                        23.70
                    2000.0                        23.75
                    2006.3                        23.80
                    2012.5                        23.84
                    2018.8                        23.89
                    2025.0                        23.94
                    2031.3                        23.99
                    2037.5                        24.04
                    2043.8                        24.09
                    2050.0                        24.14
                    2056.3                        24.19
                    2062.5                        24.24
                    2068.8                        24.29
                    2075.0                        24.33
                    2081.3                        24.38
                    2087.5                        24.43
                    2093.8                        24.48
                    2100.0                        24.53
                    2106.3                        24.58
                    2112.5                        24.63
                    2118.8                        24.67
                    2125.0                        24.72
                    2131.3                        24.77
                    2137.5                        24.82
                    2143.8                        24.87
                    2150.0                        24.92
                    2156.3                        24.96
                    2162.5                        25.01
                    2168.8                        25.06
                    2175.0                        25.11
                    2181.3                        25.16
                    2187.5                        25.20
                    2193.8                        25.25
                    2200.0                        25.30
                    2206.3                        25.35
                    2212.5                        25.40
                    2218.8                        25.44
                    2225.0                        25.49
                    2231.3                        25.54
                    2237.5                        25.59
                    2243.8                        25.63
                    2250.0                        25.68
                    2256.3                        25.73
                    2262.5                        25.78
                    2268.8                        25.82
                    2275.0                        25.87
                    2281.3                        25.92
                    2287.5                        25.96
                    2293.8                        26.01
                    2300.0                        26.06
                    2306.3                        26.11
                    2312.5                        26.15
                    2318.8                        26.20
                    2325.0                        26.25
                    2331.3                        26.29
                    2337.5                        26.34
                    2343.8                        26.39
                    2350.0                        26.43
                    2356.3                        26.48
                    2362.5                        26.53
                    2368.8                        26.57
                    2375.0                        26.62
                    2381.3                        26.67
                    2387.5                        26.71
                    2393.8                        26.76
                    2400.0                        26.81
                    2406.3                        26.85
                    2412.5                        26.90
                    2418.8                        26.95
                    2425.0                        26.99
                    2431.3                        27.04
                    2437.5                        27.09
                    2443.8                        27.13
                    2450.0                        27.18
                    2456.3                        27.22
                    2462.5                        27.27
                    2468.8                        27.32
                    2475.0                        27.36
                    2481.3                        27.41
                    2487.5                        27.45
                    2493.8                        27.50
                    2500.0                        27.54
                    2506.3                        27.59
                    2512.5                        27.64
                    2518.8                        27.68
                    2525.0                        27.73
                    2531.3                        27.77
                    2537.5                        27.82
                    2543.8                        27.86
                    2550.0                        27.91
                    2556.3                        27.96
                    2562.5                        28.00
                    2568.8                        28.05
                    2575.0                        28.09
                    2581.3                        28.14
                    2587.5                        28.18
                    2593.8                        28.23
                    2600.0                        28.27
                    2606.3                        28.32
                    2612.5                        28.36
                    2618.8                        28.41
                    2625.0                        28.45
                    2631.3                        28.50
                    2637.5                        28.54
                    2643.8                        28.59
                    2650.0                        28.63
