
ELEMENT:
                                      Ta

SOURCE:
                        Lesiak, Jablonski and Gergely
                             Vacuum 40 (1990) 67
           IMFPs determined from the intensity of the elastic peak
       Multiple elastic scattering simulated by the Monte Carlo method

ATOMIC WEIGHT:               180.94790

DENSITY:                      16.4000 g/cm**3

TABULATION:

______________________________________________________________________________

                    Energy                         IMFP
                      eV                        Angstroms
______________________________________________________________________________
                     500.0                         5.37
                     506.3                         5.41
                     512.5                         5.46
                     518.8                         5.50
                     525.0                         5.55
                     531.3                         5.59
                     537.5                         5.64
                     543.8                         5.68
                     550.0                         5.72
                     556.3                         5.77
                     562.5                         5.81
                     568.8                         5.85
                     575.0                         5.90
                     581.3                         5.94
                     587.5                         5.98
                     593.8                         6.02
                     600.0                         6.07
                     606.3                         6.11
                     612.5                         6.15
                     618.8                         6.19
                     625.0                         6.23
                     631.3                         6.28
                     637.5                         6.32
                     643.8                         6.36
                     650.0                         6.40
                     656.3                         6.44
                     662.5                         6.48
                     668.8                         6.52
                     675.0                         6.56
                     681.3                         6.60
                     687.5                         6.64
                     693.8                         6.68
                     700.0                         6.72
                     706.3                         6.76
                     712.5                         6.80
                     718.8                         6.84
                     725.0                         6.88
                     731.3                         6.92
                     737.5                         6.96
                     743.8                         7.00
                     750.0                         7.04
                     756.3                         7.08
                     762.5                         7.12
                     768.8                         7.16
                     775.0                         7.20
                     781.3                         7.24
                     787.5                         7.28
                     793.8                         7.31
                     800.0                         7.35
                     806.3                         7.39
                     812.5                         7.43
                     818.8                         7.47
                     825.0                         7.51
                     831.3                         7.54
                     837.5                         7.58
                     843.8                         7.62
                     850.0                         7.66
                     856.3                         7.69
                     862.5                         7.73
                     868.8                         7.77
                     875.0                         7.81
                     881.3                         7.84
                     887.5                         7.88
                     893.8                         7.92
                     900.0                         7.96
                     906.3                         7.99
                     912.5                         8.03
                     918.8                         8.07
                     925.0                         8.10
                     931.3                         8.14
                     937.5                         8.18
                     943.8                         8.21
                     950.0                         8.25
                     956.3                         8.28
                     962.5                         8.32
                     968.8                         8.36
                     975.0                         8.39
                     981.3                         8.43
                     987.5                         8.46
                     993.8                         8.50
                    1000.0                         8.54
                    1006.3                         8.57
                    1012.5                         8.61
                    1018.8                         8.64
                    1025.0                         8.68
                    1031.3                         8.71
                    1037.5                         8.75
                    1043.8                         8.78
                    1050.0                         8.82
                    1056.3                         8.85
                    1062.5                         8.89
                    1068.8                         8.92
                    1075.0                         8.96
                    1081.3                         8.99
                    1087.5                         9.03
                    1093.8                         9.06
                    1100.0                         9.10
                    1106.3                         9.13
                    1112.5                         9.17
                    1118.8                         9.20
                    1125.0                         9.24
                    1131.3                         9.27
                    1137.5                         9.30
                    1143.8                         9.34
                    1150.0                         9.37
                    1156.3                         9.41
                    1162.5                         9.44
                    1168.8                         9.48
                    1175.0                         9.51
                    1181.3                         9.54
                    1187.5                         9.58
                    1193.8                         9.61
                    1200.0                         9.64
                    1206.3                         9.68
                    1212.5                         9.71
                    1218.8                         9.74
                    1225.0                         9.78
                    1231.3                         9.81
                    1237.5                         9.84
                    1243.8                         9.88
                    1250.0                         9.91
                    1256.3                         9.94
                    1262.5                         9.98
                    1268.8                        10.01
                    1275.0                        10.04
                    1281.3                        10.08
                    1287.5                        10.11
                    1293.8                        10.14
                    1300.0                        10.17
                    1306.3                        10.21
                    1312.5                        10.24
                    1318.8                        10.27
                    1325.0                        10.30
                    1331.3                        10.34
                    1337.5                        10.37
                    1343.8                        10.40
                    1350.0                        10.43
                    1356.3                        10.47
                    1362.5                        10.50
                    1368.8                        10.53
                    1375.0                        10.56
                    1381.3                        10.60
                    1387.5                        10.63
                    1393.8                        10.66
                    1400.0                        10.69
                    1406.3                        10.72
                    1412.5                        10.76
                    1418.8                        10.79
                    1425.0                        10.82
                    1431.3                        10.85
                    1437.5                        10.88
                    1443.8                        10.91
                    1450.0                        10.95
                    1456.3                        10.98
                    1462.5                        11.01
                    1468.8                        11.04
                    1475.0                        11.07
                    1481.3                        11.10
                    1487.5                        11.13
                    1493.8                        11.17
                    1500.0                        11.20
                    1506.3                        11.23
                    1512.5                        11.26
                    1518.8                        11.29
                    1525.0                        11.32
                    1531.3                        11.35
                    1537.5                        11.38
                    1543.8                        11.41
                    1550.0                        11.44
                    1556.3                        11.48
                    1562.5                        11.51
                    1568.8                        11.54
                    1575.0                        11.57
                    1581.3                        11.60
                    1587.5                        11.63
                    1593.8                        11.66
                    1600.0                        11.69
                    1606.3                        11.72
                    1612.5                        11.75
                    1618.8                        11.78
                    1625.0                        11.81
                    1631.3                        11.84
                    1637.5                        11.87
                    1643.8                        11.90
                    1650.0                        11.93
                    1656.3                        11.96
                    1662.5                        11.99
                    1668.8                        12.02
                    1675.0                        12.05
                    1681.3                        12.08
                    1687.5                        12.11
                    1693.8                        12.14
                    1700.0                        12.17
                    1706.3                        12.20
                    1712.5                        12.23
                    1718.8                        12.26
                    1725.0                        12.29
                    1731.3                        12.32
                    1737.5                        12.35
                    1743.8                        12.38
                    1750.0                        12.41
                    1756.3                        12.44
                    1762.5                        12.47
                    1768.8                        12.50
                    1775.0                        12.53
                    1781.3                        12.56
                    1787.5                        12.59
                    1793.8                        12.62
                    1800.0                        12.65
                    1806.3                        12.68
                    1812.5                        12.71
                    1818.8                        12.74
                    1825.0                        12.77
                    1831.3                        12.80
                    1837.5                        12.82
                    1843.8                        12.85
                    1850.0                        12.88
                    1856.3                        12.91
                    1862.5                        12.94
                    1868.8                        12.97
                    1875.0                        13.00
                    1881.3                        13.03
                    1887.5                        13.06
                    1893.8                        13.09
                    1900.0                        13.11
                    1906.3                        13.14
                    1912.5                        13.17
                    1918.8                        13.20
                    1925.0                        13.23
                    1931.3                        13.26
                    1937.5                        13.29
                    1943.8                        13.32
                    1950.0                        13.34
                    1956.3                        13.37
                    1962.5                        13.40
                    1968.8                        13.43
                    1975.0                        13.46
                    1981.3                        13.49
                    1987.5                        13.52
                    1993.8                        13.54
                    2000.0                        13.57
                    2006.3                        13.60
                    2012.5                        13.63
                    2018.8                        13.66
                    2025.0                        13.69
                    2031.3                        13.71
                    2037.5                        13.74
                    2043.8                        13.77
                    2050.0                        13.80
                    2056.3                        13.83
                    2062.5                        13.86
                    2068.8                        13.88
                    2075.0                        13.91
                    2081.3                        13.94
                    2087.5                        13.97
                    2093.8                        14.00
                    2100.0                        14.02
                    2106.3                        14.05
                    2112.5                        14.08
                    2118.8                        14.11
                    2125.0                        14.13
                    2131.3                        14.16
                    2137.5                        14.19
                    2143.8                        14.22
                    2150.0                        14.25
                    2156.3                        14.27
                    2162.5                        14.30
                    2168.8                        14.33
                    2175.0                        14.36
                    2181.3                        14.38
                    2187.5                        14.41
                    2193.8                        14.44
                    2200.0                        14.47
                    2206.3                        14.49
                    2212.5                        14.52
                    2218.8                        14.55
                    2225.0                        14.58
                    2231.3                        14.60
                    2237.5                        14.63
                    2243.8                        14.66
                    2250.0                        14.69
                    2256.3                        14.71
                    2262.5                        14.74
                    2268.8                        14.77
                    2275.0                        14.79
                    2281.3                        14.82
                    2287.5                        14.85
                    2293.8                        14.88
                    2300.0                        14.90
                    2306.3                        14.93
                    2312.5                        14.96
                    2318.8                        14.98
                    2325.0                        15.01
                    2331.3                        15.04
                    2337.5                        15.07
                    2343.8                        15.09
                    2350.0                        15.12
                    2356.3                        15.15
                    2362.5                        15.17
                    2368.8                        15.20
                    2375.0                        15.23
                    2381.3                        15.25
                    2387.5                        15.28
                    2393.8                        15.31
                    2400.0                        15.33
                    2406.3                        15.36
                    2412.5                        15.39
                    2418.8                        15.41
                    2425.0                        15.44
                    2431.3                        15.47
                    2437.5                        15.49
                    2443.8                        15.52
                    2450.0                        15.55
                    2456.3                        15.57
                    2462.5                        15.60
                    2468.8                        15.63
                    2475.0                        15.65
                    2481.3                        15.68
                    2487.5                        15.71
                    2493.8                        15.73
                    2500.0                        15.76
                    2506.3                        15.78
                    2512.5                        15.81
                    2518.8                        15.84
                    2525.0                        15.86
                    2531.3                        15.89
                    2537.5                        15.92
                    2543.8                        15.94
                    2550.0                        15.97
                    2556.3                        15.99
                    2562.5                        16.02
                    2568.8                        16.05
                    2575.0                        16.07
                    2581.3                        16.10
                    2587.5                        16.12
                    2593.8                        16.15
                    2600.0                        16.18
                    2606.3                        16.20
                    2612.5                        16.23
                    2618.8                        16.25
                    2625.0                        16.28
                    2631.3                        16.31
                    2637.5                        16.33
                    2643.8                        16.36
                    2650.0                        16.38
