
ELEMENT:
                                      Bi

SOURCE:
                                     Koch
         Thesis, Eberhard-Karls-Universitat, Tubingen, Germany (1996)
           IMFPs determined from the intensity of the elastic peak
       Multiple elastic scattering simulated by the Monte Carlo method

ATOMIC WEIGHT:               208.98038

DENSITY:                       9.7900 g/cm**3

TABULATION:

______________________________________________________________________________

                    Energy                         IMFP
                      eV                        Angstroms
______________________________________________________________________________
                     600.0                        12.31
                     604.0                        12.37
                     608.0                        12.44
                     612.0                        12.50
                     616.0                        12.57
                     620.0                        12.63
                     624.0                        12.70
                     628.0                        12.76
                     632.0                        12.82
                     636.0                        12.89
                     640.0                        12.95
                     644.0                        13.02
                     648.0                        13.08
                     652.0                        13.14
                     656.0                        13.21
                     660.0                        13.27
                     664.0                        13.34
                     668.0                        13.40
                     672.0                        13.46
                     676.0                        13.53
                     680.0                        13.59
                     684.0                        13.65
                     688.0                        13.72
                     692.0                        13.78
                     696.0                        13.84
                     700.0                        13.91
                     704.0                        13.97
                     708.0                        14.03
                     712.0                        14.09
                     716.0                        14.16
                     720.0                        14.22
                     724.0                        14.28
                     728.0                        14.34
                     732.0                        14.41
                     736.0                        14.47
                     740.0                        14.53
                     744.0                        14.59
                     748.0                        14.66
                     752.0                        14.72
                     756.0                        14.78
                     760.0                        14.84
                     764.0                        14.90
                     768.0                        14.96
                     772.0                        15.03
                     776.0                        15.09
                     780.0                        15.15
                     784.0                        15.21
                     788.0                        15.27
                     792.0                        15.33
                     796.0                        15.40
                     800.0                        15.46
                     804.0                        15.52
                     808.0                        15.58
                     812.0                        15.64
                     816.0                        15.70
                     820.0                        15.76
                     824.0                        15.82
                     828.0                        15.88
                     832.0                        15.94
                     836.0                        16.00
                     840.0                        16.07
                     844.0                        16.13
                     848.0                        16.19
                     852.0                        16.25
                     856.0                        16.31
                     860.0                        16.37
                     864.0                        16.43
                     868.0                        16.49
                     872.0                        16.55
                     876.0                        16.61
                     880.0                        16.67
                     884.0                        16.73
                     888.0                        16.79
                     892.0                        16.85
                     896.0                        16.91
                     900.0                        16.97
                     904.0                        17.03
                     908.0                        17.09
                     912.0                        17.15
                     916.0                        17.21
                     920.0                        17.27
                     924.0                        17.33
                     928.0                        17.38
                     932.0                        17.44
                     936.0                        17.50
                     940.0                        17.56
                     944.0                        17.62
                     948.0                        17.68
                     952.0                        17.74
                     956.0                        17.80
                     960.0                        17.86
                     964.0                        17.92
                     968.0                        17.98
                     972.0                        18.03
                     976.0                        18.09
                     980.0                        18.15
                     984.0                        18.21
                     988.0                        18.27
                     992.0                        18.33
                     996.0                        18.39
                    1000.0                        18.44
                    1004.0                        18.50
                    1008.0                        18.56
                    1012.0                        18.62
                    1016.0                        18.68
                    1020.0                        18.74
                    1024.0                        18.79
                    1028.0                        18.85
                    1032.0                        18.91
                    1036.0                        18.97
                    1040.0                        19.03
                    1044.0                        19.08
                    1048.0                        19.14
                    1052.0                        19.20
                    1056.0                        19.26
                    1060.0                        19.32
                    1064.0                        19.37
                    1068.0                        19.43
                    1072.0                        19.49
                    1076.0                        19.55
                    1080.0                        19.60
                    1084.0                        19.66
                    1088.0                        19.72
                    1092.0                        19.78
                    1096.0                        19.83
                    1100.0                        19.89
                    1104.0                        19.95
                    1108.0                        20.00
                    1112.0                        20.06
                    1116.0                        20.12
                    1120.0                        20.18
                    1124.0                        20.23
                    1128.0                        20.29
                    1132.0                        20.35
                    1136.0                        20.40
                    1140.0                        20.46
                    1144.0                        20.52
                    1148.0                        20.57
                    1152.0                        20.63
                    1156.0                        20.69
                    1160.0                        20.74
                    1164.0                        20.80
                    1168.0                        20.86
                    1172.0                        20.91
                    1176.0                        20.97
                    1180.0                        21.03
                    1184.0                        21.08
                    1188.0                        21.14
                    1192.0                        21.20
                    1196.0                        21.25
                    1200.0                        21.31
                    1204.0                        21.37
                    1208.0                        21.42
                    1212.0                        21.48
                    1216.0                        21.53
                    1220.0                        21.59
                    1224.0                        21.65
                    1228.0                        21.70
                    1232.0                        21.76
                    1236.0                        21.81
                    1240.0                        21.87
                    1244.0                        21.93
                    1248.0                        21.98
                    1252.0                        22.04
                    1256.0                        22.09
                    1260.0                        22.15
                    1264.0                        22.20
                    1268.0                        22.26
                    1272.0                        22.32
                    1276.0                        22.37
                    1280.0                        22.43
                    1284.0                        22.48
                    1288.0                        22.54
                    1292.0                        22.59
                    1296.0                        22.65
                    1300.0                        22.70
                    1304.0                        22.76
                    1308.0                        22.81
                    1312.0                        22.87
                    1316.0                        22.93
                    1320.0                        22.98
                    1324.0                        23.04
                    1328.0                        23.09
                    1332.0                        23.15
                    1336.0                        23.20
                    1340.0                        23.26
                    1344.0                        23.31
                    1348.0                        23.37
                    1352.0                        23.42
                    1356.0                        23.48
                    1360.0                        23.53
                    1364.0                        23.58
                    1368.0                        23.64
                    1372.0                        23.69
                    1376.0                        23.75
                    1380.0                        23.80
                    1384.0                        23.86
                    1388.0                        23.91
                    1392.0                        23.97
                    1396.0                        24.02
                    1400.0                        24.08
                    1404.0                        24.13
                    1408.0                        24.19
                    1412.0                        24.24
                    1416.0                        24.29
                    1420.0                        24.35
                    1424.0                        24.40
                    1428.0                        24.46
                    1432.0                        24.51
                    1436.0                        24.57
                    1440.0                        24.62
                    1444.0                        24.67
                    1448.0                        24.73
                    1452.0                        24.78
                    1456.0                        24.84
                    1460.0                        24.89
                    1464.0                        24.94
                    1468.0                        25.00
                    1472.0                        25.05
                    1476.0                        25.11
                    1480.0                        25.16
                    1484.0                        25.21
                    1488.0                        25.27
                    1492.0                        25.32
                    1496.0                        25.38
                    1500.0                        25.43
                    1504.0                        25.48
                    1508.0                        25.54
                    1512.0                        25.59
                    1516.0                        25.64
                    1520.0                        25.70
                    1524.0                        25.75
                    1528.0                        25.80
                    1532.0                        25.86
                    1536.0                        25.91
                    1540.0                        25.96
                    1544.0                        26.02
                    1548.0                        26.07
                    1552.0                        26.12
                    1556.0                        26.18
                    1560.0                        26.23
                    1564.0                        26.28
                    1568.0                        26.34
                    1572.0                        26.39
                    1576.0                        26.44
                    1580.0                        26.50
                    1584.0                        26.55
                    1588.0                        26.60
                    1592.0                        26.66
                    1596.0                        26.71
                    1600.0                        26.76
                    1604.0                        26.82
                    1608.0                        26.87
                    1612.0                        26.92
                    1616.0                        26.97
                    1620.0                        27.03
                    1624.0                        27.08
                    1628.0                        27.13
                    1632.0                        27.19
                    1636.0                        27.24
                    1640.0                        27.29
                    1644.0                        27.34
                    1648.0                        27.40
                    1652.0                        27.45
                    1656.0                        27.50
                    1660.0                        27.55
                    1664.0                        27.61
                    1668.0                        27.66
                    1672.0                        27.71
                    1676.0                        27.76
                    1680.0                        27.82
                    1684.0                        27.87
                    1688.0                        27.92
                    1692.0                        27.97
                    1696.0                        28.03
                    1700.0                        28.08
                    1704.0                        28.13
                    1708.0                        28.18
                    1712.0                        28.24
                    1716.0                        28.29
                    1720.0                        28.34
                    1724.0                        28.39
                    1728.0                        28.44
                    1732.0                        28.50
                    1736.0                        28.55
                    1740.0                        28.60
                    1744.0                        28.65
                    1748.0                        28.70
                    1752.0                        28.76
                    1756.0                        28.81
                    1760.0                        28.86
                    1764.0                        28.91
                    1768.0                        28.96
                    1772.0                        29.02
                    1776.0                        29.07
                    1780.0                        29.12
                    1784.0                        29.17
                    1788.0                        29.22
                    1792.0                        29.28
                    1796.0                        29.33
                    1800.0                        29.38
                    1804.0                        29.43
                    1808.0                        29.48
                    1812.0                        29.53
                    1816.0                        29.59
                    1820.0                        29.64
                    1824.0                        29.69
                    1828.0                        29.74
                    1832.0                        29.79
                    1836.0                        29.84
                    1840.0                        29.89
                    1844.0                        29.95
                    1848.0                        30.00
                    1852.0                        30.05
                    1856.0                        30.10
                    1860.0                        30.15
                    1864.0                        30.20
                    1868.0                        30.25
                    1872.0                        30.31
                    1876.0                        30.36
                    1880.0                        30.41
                    1884.0                        30.46
                    1888.0                        30.51
                    1892.0                        30.56
                    1896.0                        30.61
                    1900.0                        30.66
                    1904.0                        30.72
                    1908.0                        30.77
                    1912.0                        30.82
                    1916.0                        30.87
                    1920.0                        30.92
                    1924.0                        30.97
                    1928.0                        31.02
                    1932.0                        31.07
                    1936.0                        31.12
                    1940.0                        31.17
                    1944.0                        31.23
                    1948.0                        31.28
                    1952.0                        31.33
                    1956.0                        31.38
                    1960.0                        31.43
                    1964.0                        31.48
                    1968.0                        31.53
                    1972.0                        31.58
