
ELEMENT:
                                      Co

SOURCE:
                               Krawczyk et al.
                    Surface Interface Anal. 25 (1997) 356
           IMFPs determined from the intensity of the elastic peak
       Multiple elastic scattering simulated by the Monte Carlo method

COMMENT:
                                 Al reference

ATOMIC WEIGHT:                58.93320

DENSITY:                       8.9000 g/cm**3

TABULATION:

______________________________________________________________________________

                    Energy                         IMFP
                      eV                        Angstroms
______________________________________________________________________________
                     200.0                         4.94
                     202.0                         4.96
                     204.0                         4.98
                     206.0                         5.00
                     208.0                         5.02
                     210.0                         5.04
                     212.0                         5.06
                     214.0                         5.08
                     216.0                         5.11
                     218.0                         5.13
                     220.0                         5.15
                     222.0                         5.17
                     224.0                         5.19
                     226.0                         5.21
                     228.0                         5.23
                     230.0                         5.25
                     232.0                         5.27
                     234.0                         5.29
                     236.0                         5.31
                     238.0                         5.33
                     240.0                         5.35
                     242.0                         5.36
                     244.0                         5.38
                     246.0                         5.40
                     248.0                         5.42
                     250.0                         5.44
                     252.0                         5.46
                     254.0                         5.48
                     256.0                         5.50
                     258.0                         5.52
                     260.0                         5.54
                     262.0                         5.55
                     264.0                         5.57
                     266.0                         5.59
                     268.0                         5.61
                     270.0                         5.63
                     272.0                         5.65
                     274.0                         5.66
                     276.0                         5.68
                     278.0                         5.70
                     280.0                         5.72
                     282.0                         5.73
                     284.0                         5.75
                     286.0                         5.77
                     288.0                         5.79
                     290.0                         5.80
                     292.0                         5.82
                     294.0                         5.84
                     296.0                         5.86
                     298.0                         5.87
                     300.0                         5.89
                     302.0                         5.91
                     304.0                         5.93
                     306.0                         5.94
                     308.0                         5.96
                     310.0                         5.98
                     312.0                         5.99
                     314.0                         6.01
                     316.0                         6.03
                     318.0                         6.04
                     320.0                         6.06
                     322.0                         6.08
                     324.0                         6.09
                     326.0                         6.11
                     328.0                         6.13
                     330.0                         6.14
                     332.0                         6.16
                     334.0                         6.17
                     336.0                         6.19
                     338.0                         6.21
                     340.0                         6.22
                     342.0                         6.24
                     344.0                         6.25
                     346.0                         6.27
                     348.0                         6.29
                     350.0                         6.30
                     352.0                         6.32
                     354.0                         6.33
                     356.0                         6.35
                     358.0                         6.36
                     360.0                         6.38
                     362.0                         6.39
                     364.0                         6.41
                     366.0                         6.43
                     368.0                         6.44
                     370.0                         6.46
                     372.0                         6.47
                     374.0                         6.49
                     376.0                         6.50
                     378.0                         6.52
                     380.0                         6.53
                     382.0                         6.55
                     384.0                         6.56
                     386.0                         6.58
                     388.0                         6.59
                     390.0                         6.61
                     392.0                         6.62
                     394.0                         6.63
                     396.0                         6.65
                     398.0                         6.66
                     400.0                         6.68
                     402.0                         6.69
                     404.0                         6.71
                     406.0                         6.72
                     408.0                         6.74
                     410.0                         6.75
                     412.0                         6.77
                     414.0                         6.78
                     416.0                         6.79
                     418.0                         6.81
                     420.0                         6.82
                     422.0                         6.84
                     424.0                         6.85
                     426.0                         6.86
                     428.0                         6.88
                     430.0                         6.89
                     432.0                         6.91
                     434.0                         6.92
                     436.0                         6.93
                     438.0                         6.95
                     440.0                         6.96
                     442.0                         6.98
                     444.0                         6.99
                     446.0                         7.00
                     448.0                         7.02
                     450.0                         7.03
                     452.0                         7.04
                     454.0                         7.06
                     456.0                         7.07
                     458.0                         7.08
                     460.0                         7.10
                     462.0                         7.11
                     464.0                         7.13
                     466.0                         7.14
                     468.0                         7.15
                     470.0                         7.17
                     472.0                         7.18
                     474.0                         7.19
                     476.0                         7.20
                     478.0                         7.22
                     480.0                         7.23
                     482.0                         7.24
                     484.0                         7.26
                     486.0                         7.27
                     488.0                         7.28
                     490.0                         7.30
                     492.0                         7.31
                     494.0                         7.32
                     496.0                         7.34
                     498.0                         7.35
                     500.0                         7.36
                     502.0                         7.37
                     504.0                         7.39
                     506.0                         7.40
                     508.0                         7.41
                     510.0                         7.43
                     512.0                         7.44
                     514.0                         7.45
                     516.0                         7.46
                     518.0                         7.48
                     520.0                         7.49
                     522.0                         7.50
                     524.0                         7.51
                     526.0                         7.53
                     528.0                         7.54
                     530.0                         7.55
                     532.0                         7.56
                     534.0                         7.58
                     536.0                         7.59
                     538.0                         7.60
                     540.0                         7.61
                     542.0                         7.62
                     544.0                         7.64
                     546.0                         7.65
                     548.0                         7.66
                     550.0                         7.67
                     552.0                         7.69
                     554.0                         7.70
                     556.0                         7.71
                     558.0                         7.72
                     560.0                         7.73
                     562.0                         7.75
                     564.0                         7.76
                     566.0                         7.77
                     568.0                         7.78
                     570.0                         7.79
                     572.0                         7.81
                     574.0                         7.82
                     576.0                         7.83
                     578.0                         7.84
                     580.0                         7.85
                     582.0                         7.87
                     584.0                         7.88
                     586.0                         7.89
                     588.0                         7.90
                     590.0                         7.91
                     592.0                         7.92
                     594.0                         7.94
                     596.0                         7.95
                     598.0                         7.96
                     600.0                         7.97
                     602.0                         7.98
                     604.0                         7.99
                     606.0                         8.00
                     608.0                         8.02
                     610.0                         8.03
                     612.0                         8.04
                     614.0                         8.05
                     616.0                         8.06
                     618.0                         8.07
                     620.0                         8.08
                     622.0                         8.10
                     624.0                         8.11
                     626.0                         8.12
                     628.0                         8.13
                     630.0                         8.14
                     632.0                         8.15
                     634.0                         8.16
                     636.0                         8.18
                     638.0                         8.19
                     640.0                         8.20
                     642.0                         8.21
                     644.0                         8.22
                     646.0                         8.23
                     648.0                         8.24
                     650.0                         8.25
                     652.0                         8.26
                     654.0                         8.28
                     656.0                         8.29
                     658.0                         8.30
                     660.0                         8.31
                     662.0                         8.32
                     664.0                         8.33
                     666.0                         8.34
                     668.0                         8.35
                     670.0                         8.36
                     672.0                         8.37
                     674.0                         8.38
                     676.0                         8.40
                     678.0                         8.41
                     680.0                         8.42
                     682.0                         8.43
                     684.0                         8.44
                     686.0                         8.45
                     688.0                         8.46
                     690.0                         8.47
                     692.0                         8.48
                     694.0                         8.49
                     696.0                         8.50
                     698.0                         8.51
                     700.0                         8.52
                     702.0                         8.53
                     704.0                         8.55
                     706.0                         8.56
                     708.0                         8.57
                     710.0                         8.58
                     712.0                         8.59
                     714.0                         8.60
                     716.0                         8.61
                     718.0                         8.62
                     720.0                         8.63
                     722.0                         8.64
                     724.0                         8.65
                     726.0                         8.66
                     728.0                         8.67
                     730.0                         8.68
                     732.0                         8.69
                     734.0                         8.70
                     736.0                         8.71
                     738.0                         8.72
                     740.0                         8.73
                     742.0                         8.74
                     744.0                         8.75
                     746.0                         8.76
                     748.0                         8.77
                     750.0                         8.78
                     752.0                         8.79
                     754.0                         8.81
                     756.0                         8.82
                     758.0                         8.83
                     760.0                         8.84
                     762.0                         8.85
                     764.0                         8.86
                     766.0                         8.87
                     768.0                         8.88
                     770.0                         8.89
                     772.0                         8.90
                     774.0                         8.91
                     776.0                         8.92
                     778.0                         8.93
                     780.0                         8.94
                     782.0                         8.95
                     784.0                         8.96
                     786.0                         8.97
                     788.0                         8.98
                     790.0                         8.99
                     792.0                         9.00
                     794.0                         9.01
                     796.0                         9.02
                     798.0                         9.03
                     800.0                         9.04
                     802.0                         9.05
                     804.0                         9.05
                     806.0                         9.06
                     808.0                         9.07
                     810.0                         9.08
                     812.0                         9.09
                     814.0                         9.10
                     816.0                         9.11
                     818.0                         9.12
                     820.0                         9.13
                     822.0                         9.14
                     824.0                         9.15
                     826.0                         9.16
                     828.0                         9.17
                     830.0                         9.18
                     832.0                         9.19
                     834.0                         9.20
                     836.0                         9.21
                     838.0                         9.22
                     840.0                         9.23
                     842.0                         9.24
                     844.0                         9.25
                     846.0                         9.26
                     848.0                         9.27
                     850.0                         9.28
                     852.0                         9.29
                     854.0                         9.30
                     856.0                         9.31
                     858.0                         9.32
                     860.0                         9.32
                     862.0                         9.33
                     864.0                         9.34
                     866.0                         9.35
                     868.0                         9.36
                     870.0                         9.37
                     872.0                         9.38
                     874.0                         9.39
                     876.0                         9.40
                     878.0                         9.41
                     880.0                         9.42
                     882.0                         9.43
                     884.0                         9.44
                     886.0                         9.45
