
ELEMENT:
                                      Au

SOURCE:
                       Beilschmidt, Tilinin and Werner
                    Surface Interface Anal. 22 (1994) 120
           IMFPs determined from the intensity of the elastic peak
  Multiple elastic scattering accounted by the approximate analytical theory

COMMENT:
                                 Pt reference

ATOMIC WEIGHT:               196.96655

DENSITY:                      19.3000 g/cm**3

TABULATION:

______________________________________________________________________________

                    Energy                         IMFP
                      eV                        Angstroms
______________________________________________________________________________
                     250.0                         5.01
                     253.1                         5.06
                     256.3                         5.10
                     259.4                         5.14
                     262.5                         5.19
                     265.6                         5.23
                     268.8                         5.27
                     271.9                         5.32
                     275.0                         5.36
                     278.1                         5.40
                     281.3                         5.44
                     284.4                         5.49
                     287.5                         5.53
                     290.6                         5.57
                     293.8                         5.61
                     296.9                         5.65
                     300.0                         5.70
                     303.1                         5.74
                     306.3                         5.78
                     309.4                         5.82
                     312.5                         5.86
                     315.6                         5.90
                     318.8                         5.94
                     321.9                         5.98
                     325.0                         6.02
                     328.1                         6.06
                     331.3                         6.11
                     334.4                         6.15
                     337.5                         6.19
                     340.6                         6.23
                     343.8                         6.27
                     346.9                         6.31
                     350.0                         6.35
                     353.1                         6.38
                     356.3                         6.42
                     359.4                         6.46
                     362.5                         6.50
                     365.6                         6.54
                     368.8                         6.58
                     371.9                         6.62
                     375.0                         6.66
                     378.1                         6.70
                     381.3                         6.74
                     384.4                         6.78
                     387.5                         6.81
                     390.6                         6.85
                     393.8                         6.89
                     396.9                         6.93
                     400.0                         6.97
                     403.1                         7.01
                     406.3                         7.04
                     409.4                         7.08
                     412.5                         7.12
                     415.6                         7.16
                     418.8                         7.19
                     421.9                         7.23
                     425.0                         7.27
                     428.1                         7.31
                     431.3                         7.34
                     434.4                         7.38
                     437.5                         7.42
                     440.6                         7.46
                     443.8                         7.49
                     446.9                         7.53
                     450.0                         7.57
                     453.1                         7.60
                     456.3                         7.64
                     459.4                         7.68
                     462.5                         7.71
                     465.6                         7.75
                     468.8                         7.79
                     471.9                         7.82
                     475.0                         7.86
                     478.1                         7.89
                     481.3                         7.93
                     484.4                         7.97
                     487.5                         8.00
                     490.6                         8.04
                     493.8                         8.07
                     496.9                         8.11
                     500.0                         8.14
                     503.1                         8.18
                     506.3                         8.22
                     509.4                         8.25
                     512.5                         8.29
                     515.6                         8.32
                     518.8                         8.36
                     521.9                         8.39
                     525.0                         8.43
                     528.1                         8.46
                     531.3                         8.50
                     534.4                         8.53
                     537.5                         8.57
                     540.6                         8.60
                     543.8                         8.64
                     546.9                         8.67
                     550.0                         8.71
                     553.1                         8.74
                     556.3                         8.78
                     559.4                         8.81
                     562.5                         8.84
                     565.6                         8.88
                     568.8                         8.91
                     571.9                         8.95
                     575.0                         8.98
                     578.1                         9.02
                     581.3                         9.05
                     584.4                         9.08
                     587.5                         9.12
                     590.6                         9.15
                     593.8                         9.19
                     596.9                         9.22
                     600.0                         9.25
                     603.1                         9.29
                     606.3                         9.32
                     609.4                         9.35
                     612.5                         9.39
                     615.6                         9.42
                     618.8                         9.46
                     621.9                         9.49
                     625.0                         9.52
                     628.1                         9.56
                     631.3                         9.59
                     634.4                         9.62
                     637.5                         9.65
                     640.6                         9.69
                     643.8                         9.72
                     646.9                         9.75
                     650.0                         9.79
                     653.1                         9.82
                     656.3                         9.85
                     659.4                         9.89
                     662.5                         9.92
                     665.6                         9.95
                     668.8                         9.98
                     671.9                        10.02
                     675.0                        10.05
                     678.1                        10.08
                     681.3                        10.11
                     684.4                        10.15
                     687.5                        10.18
                     690.6                        10.21
                     693.8                        10.24
                     696.9                        10.28
                     700.0                        10.31
                     703.1                        10.34
                     706.3                        10.37
                     709.4                        10.40
                     712.5                        10.44
                     715.6                        10.47
                     718.8                        10.50
                     721.9                        10.53
                     725.0                        10.56
                     728.1                        10.60
                     731.3                        10.63
                     734.4                        10.66
                     737.5                        10.69
                     740.6                        10.72
                     743.8                        10.75
                     746.9                        10.79
                     750.0                        10.82
                     753.1                        10.85
                     756.3                        10.88
                     759.4                        10.91
                     762.5                        10.94
                     765.6                        10.98
                     768.8                        11.01
                     771.9                        11.04
                     775.0                        11.07
                     778.1                        11.10
                     781.3                        11.13
                     784.4                        11.16
                     787.5                        11.19
                     790.6                        11.22
                     793.8                        11.26
                     796.9                        11.29
                     800.0                        11.32
                     803.1                        11.35
                     806.3                        11.38
                     809.4                        11.41
                     812.5                        11.44
                     815.6                        11.47
                     818.8                        11.50
                     821.9                        11.53
                     825.0                        11.56
                     828.1                        11.59
                     831.3                        11.63
                     834.4                        11.66
                     837.5                        11.69
                     840.6                        11.72
                     843.8                        11.75
                     846.9                        11.78
                     850.0                        11.81
                     853.1                        11.84
                     856.3                        11.87
                     859.4                        11.90
                     862.5                        11.93
                     865.6                        11.96
                     868.8                        11.99
                     871.9                        12.02
                     875.0                        12.05
                     878.1                        12.08
                     881.3                        12.11
                     884.4                        12.14
                     887.5                        12.17
                     890.6                        12.20
                     893.8                        12.23
                     896.9                        12.26
                     900.0                        12.29
                     903.1                        12.32
                     906.3                        12.35
                     909.4                        12.38
                     912.5                        12.41
                     915.6                        12.44
                     918.8                        12.47
                     921.9                        12.50
                     925.0                        12.53
                     928.1                        12.56
                     931.3                        12.59
                     934.4                        12.62
                     937.5                        12.65
                     940.6                        12.68
                     943.8                        12.71
                     946.9                        12.74
                     950.0                        12.76
                     953.1                        12.79
                     956.3                        12.82
                     959.4                        12.85
                     962.5                        12.88
                     965.6                        12.91
                     968.8                        12.94
                     971.9                        12.97
                     975.0                        13.00
                     978.1                        13.03
                     981.3                        13.06
                     984.4                        13.09
                     987.5                        13.12
                     990.6                        13.14
                     993.8                        13.17
                     996.9                        13.20
                    1000.0                        13.23
                    1003.1                        13.26
                    1006.3                        13.29
                    1009.4                        13.32
                    1012.5                        13.35
                    1015.6                        13.38
                    1018.8                        13.40
                    1021.9                        13.43
                    1025.0                        13.46
                    1028.1                        13.49
                    1031.3                        13.52
                    1034.4                        13.55
                    1037.5                        13.58
                    1040.6                        13.61
                    1043.8                        13.63
                    1046.9                        13.66
                    1050.0                        13.69
                    1053.1                        13.72
                    1056.3                        13.75
                    1059.4                        13.78
                    1062.5                        13.80
                    1065.6                        13.83
                    1068.8                        13.86
                    1071.9                        13.89
                    1075.0                        13.92
                    1078.1                        13.95
                    1081.3                        13.97
                    1084.4                        14.00
                    1087.5                        14.03
                    1090.6                        14.06
                    1093.8                        14.09
                    1096.9                        14.12
                    1100.0                        14.14
                    1103.1                        14.17
                    1106.3                        14.20
                    1109.4                        14.23
                    1112.5                        14.26
                    1115.6                        14.28
                    1118.8                        14.31
                    1121.9                        14.34
                    1125.0                        14.37
                    1128.1                        14.40
                    1131.3                        14.42
                    1134.4                        14.45
                    1137.5                        14.48
                    1140.6                        14.51
                    1143.8                        14.54
                    1146.9                        14.56
                    1150.0                        14.59
                    1153.1                        14.62
                    1156.3                        14.65
                    1159.4                        14.67
                    1162.5                        14.70
                    1165.6                        14.73
                    1168.8                        14.76
                    1171.9                        14.78
                    1175.0                        14.81
                    1178.1                        14.84
                    1181.3                        14.87
                    1184.4                        14.90
                    1187.5                        14.92
                    1190.6                        14.95
                    1193.8                        14.98
                    1196.9                        15.01
                    1200.0                        15.03
                    1203.1                        15.06
                    1206.3                        15.09
                    1209.4                        15.11
                    1212.5                        15.14
                    1215.6                        15.17
                    1218.8                        15.20
                    1221.9                        15.22
                    1225.0                        15.25
                    1228.1                        15.28
                    1231.3                        15.31
                    1234.4                        15.33
                    1237.5                        15.36
                    1240.6                        15.39
                    1243.8                        15.41
                    1246.9                        15.44
                    1250.0                        15.47
                    1253.1                        15.50
                    1256.3                        15.52
                    1259.4                        15.55
                    1262.5                        15.58
                    1265.6                        15.60
                    1268.8                        15.63
                    1271.9                        15.66
                    1275.0                        15.68
                    1278.1                        15.71
                    1281.3                        15.74
                    1284.4                        15.76
                    1287.5                        15.79
                    1290.6                        15.82
                    1293.8                        15.85
                    1296.9                        15.87
                    1300.0                        15.90
                    1303.1                        15.93
                    1306.3                        15.95
                    1309.4                        15.98
                    1312.5                        16.01
                    1315.6                        16.03
                    1318.8                        16.06
